# TEMPERATURE = 2.500000e+01
# X W(GMIDN) W(INN) W(CGSN) W(CGSON) W(CGDON) W(CBDN) W(VEAN) W(VDSATN)
0.00000000000e+00 2.43131470191e+01 4.80590092572e-12 1.55172241294e-04 2.11576481155e-10 2.06282844322e-10 3.33933105787e-10 6.29399898941e+00 3.75089726970e-02
1.00000000000e-02 2.62121119081e+01 6.13965350228e-12 1.56231915796e-04 2.11650158804e-10 2.06296415539e-10 3.33904649778e-10 5.83712832464e+00 3.75090908788e-02
2.00000000000e-02 2.77156423798e+01 7.99625392704e-12 1.57268634051e-04 2.11720886914e-10 2.06310149330e-10 3.33872640175e-10 5.51947451956e+00 3.75092536377e-02
3.00000000000e-02 2.88664651149e+01 1.05707928096e-11 1.58346588966e-04 2.11788563104e-10 2.06324048926e-10 3.33836726011e-10 5.29829726864e+00 3.75094777510e-02
4.00000000000e-02 2.97238495700e+01 1.41317440711e-11 1.59560828101e-04 2.11853116532e-10 2.06338117648e-10 3.33796542563e-10 5.14417024157e+00 3.75097862868e-02
5.00000000000e-02 3.03485408493e+01 1.90482939932e-11 1.61046739008e-04 2.11914507273e-10 2.06352358908e-10 3.33751717308e-10 5.03678229894e+00 3.75102109487e-02
6.00000000000e-02 3.07946085936e+01 2.58277190684e-11 1.62991989469e-04 2.11972724909e-10 2.06366776213e-10 3.33701878387e-10 4.96207638150e+00 3.75107952830e-02
7.00000000000e-02 3.11062901828e+01 3.51665537387e-11 1.65651448688e-04 2.12027786458e-10 2.06381373169e-10 3.33646666199e-10 4.91031478376e+00 3.75115990637e-02
8.00000000000e-02 3.13178918928e+01 4.80203843780e-11 1.69365664021e-04 2.12079733778e-10 2.06396153483e-10 3.33585748834e-10 4.87474334950e+00 3.75127042733e-02
9.00000000000e-02 3.14550293467e+01 6.56989401282e-11 1.74583461550e-04 2.12128630620e-10 2.06411120968e-10 3.33518842090e-10 4.85067745116e+00 3.75142232485e-02
1.00000000000e-01 3.15362561177e+01 8.99953879346e-11 1.81889117141e-04 2.12174559462e-10 2.06426279547e-10 3.33445734779e-10 4.83487572652e+00 3.75163097425e-02
1.10000000000e-01 3.15746483632e+01 1.23361596069e-10 1.92034208382e-04 2.12217618275e-10 2.06441633256e-10 3.33366319781e-10 4.82510568808e+00 3.75191739092e-02
1.20000000000e-01 3.15791220710e+01 1.69145069459e-10 2.05973558506e-04 2.12257917346e-10 2.06457186247e-10 3.33280630818e-10 4.81984650342e+00 3.75231025254e-02
1.30000000000e-01 3.15482649056e+01 2.31901280726e-10 2.24380249615e-04 2.12295576249e-10 2.06472942796e-10 3.33188892652e-10 4.81808304105e+00 3.75284855882e-02
1.40000000000e-01 3.14910660898e+01 3.17808824957e-10 2.49112768413e-04 2.12330721042e-10 2.06488907304e-10 3.33091567377e-10 4.81916237651e+00 3.75358515665e-02
1.50000000000e-01 3.14110283783e+01 4.35251531076e-10 2.82062924033e-04 2.12363481748e-10 2.06505084302e-10 3.32989367862e-10 4.82269770881e+00 3.75459166533e-02
1.60000000000e-01 3.13085805649e+01 5.95559869501e-10 3.25306290418e-04 2.12393990132e-10 2.06521478458e-10 3.32883301663e-10 4.82850349053e+00 3.75596471030e-02
1.70000000000e-01 3.11831445131e+01 8.13993544261e-10 3.81203826260e-04 2.12422377806e-10 2.06538094580e-10 3.32774680030e-10 4.83655078786e+00 3.75783412113e-02
1.80000000000e-01 3.10333741401e+01 1.11102273844e-09 4.52330670320e-04 2.12448774642e-10 2.06554937623e-10 3.32665093742e-10 4.84693950411e+00 3.76037350107e-02
1.90000000000e-01 3.08573578517e+01 1.51398193727e-09 5.41347031025e-04 2.12473307488e-10 2.06572012693e-10 3.32556346939e-10 4.85988074294e+00 3.76381365725e-02
2.00000000000e-01 3.06527973191e+01 2.05918137757e-09 6.50811161190e-04 2.12496099149e-10 2.06589325055e-10 3.32450347378e-10 4.87568795695e+00 3.76845936597e-02
2.10000000000e-01 3.04171879173e+01 2.79456862123e-09 7.82952197144e-04 2.12517267633e-10 2.06606880137e-10 3.32348964534e-10 4.89477363633e+00 3.77470984049e-02
2.20000000000e-01 3.01480095113e+01 3.78303612888e-09 9.39439748795e-04 2.12536925596e-10 2.06624683536e-10 3.32253881105e-10 4.91765053257e+00 3.78308301955e-02
2.30000000000e-01 2.98429342091e+01 5.10646649349e-09 1.12119744207e-03 2.12555179985e-10 2.06642741030e-10 3.32166471214e-10 4.94493595443e+00 3.79424334040e-02
2.40000000000e-01 2.95000436979e+01 6.87059405507e-09 1.32830034264e-03 2.12572131834e-10 2.06661058578e-10 3.32087733351e-10 4.97735858909e+00 3.80903194178e-02
2.50000000000e-01 2.91180402817e+01 9.21073729728e-09 1.55997185202e-03 2.12587876188e-10 2.06679642333e-10 3.32018288081e-10 5.01576684413e+00 3.82849722602e-02
2.60000000000e-01 2.86964202378e+01 1.22984212459e-08 1.81466616059e-03 2.12602502135e-10 2.06698498648e-10 3.31958428790e-10 5.06113810736e+00 3.85392243095e-02
2.70000000000e-01 2.82355717466e+01 1.63488607455e-08 2.09020290863e-03 2.12616092914e-10 2.06717634083e-10 3.31908199659e-10 5.11458750932e+00 3.88684547586e-02
2.80000000000e-01 2.77367592012e+01 2.16292123149e-08 2.38391867888e-03 2.12628726088e-10 2.06737055417e-10 3.31867474242e-10 5.17737418627e+00 3.92906517515e-02
2.90000000000e-01 2.72019735219e+01 2.84674160635e-08 2.69281108455e-03 2.12640473765e-10 2.06756769657e-10 3.31836017373e-10 5.25090171577e+00 3.98262745801e-02
3.00000000000e-01 2.66336646014e+01 3.72613281404e-08 3.01366564330e-03 2.12651402846e-10 2.06776784044e-10 3.31813525018e-10 5.33670794511e+00 4.04978608940e-02
3.10000000000e-01 2.60344209559e+01 4.84876784266e-08 3.34316575861e-03 2.12661575298e-10 2.06797106069e-10 3.31799645328e-10 5.43643838895e+00 4.13293504412e-02
3.20000000000e-01 2.54067034584e+01 6.27101863123e-08 3.67798989369e-03 2.12671048433e-10 2.06817743478e-10 3.31793987730e-10 5.55179774061e+00 4.23451420838e-02
3.30000000000e-01 2.47527473971e+01 8.05859762407e-08 4.01489925208e-03 2.12679875202e-10 2.06838704290e-10 3.31796126630e-10 5.68447678292e+00 4.35689581519e-02
3.40000000000e-01 2.40746997842e+01 1.02869346959e-07 4.35081679207e-03 2.12688104470e-10 2.06859996800e-10 3.31805604329e-10 5.83605747579e+00 4.50226451370e-02
3.50000000000e-01 2.33749641245e+01 1.30412073563e-07 4.68289622078e-03 2.12695781307e-10 2.06881629598e-10 3.31821935506e-10 6.00790614709e+00 4.67250733556e-02
3.60000000000e-01 2.26566236326e+01 1.64159819515e-07 5.00857858556e-03 2.12702947247e-10 2.06903611580e-10 3.31844613929e-10 6.20107102450e+00 4.86912947589e-02
3.70000000000e-01 2.19237618661e+01 2.05144847650e-07 5.32563421664e-03 2.12709640554e-10 2.06925951956e-10 3.31873121023e-10 6.41620287543e+00 5.09320733116e-02
3.80000000000e-01 2.11815308521e+01 2.54475852386e-07 5.63218870066e-03 2.12715896468e-10 2.06948660268e-10 3.31906935480e-10 6.65351447782e+00 5.34538276525e-02
3.90000000000e-01 2.04359170174e+01 3.13326143619e-07 5.92673283129e-03 2.12721747434e-10 2.06971746398e-10 3.31945543008e-10 6.91278662858e+00 5.62589443171e-02
4.00000000000e-01 1.96932714075e+01 3.82921427305e-07 6.20811772245e-03 2.12727223323e-10 2.06995220588e-10 3.31988445415e-10 7.19341813155e+00 5.93463565903e-02
4.10000000000e-01 1.89597461567e+01 4.64528058457e-07 6.47553724731e-03 2.12732351635e-10 2.07019093447e-10 3.32035168489e-10 7.49450825317e+00 6.27122551756e-02
4.20000000000e-01 1.82407880907e+01 5.59442066836e-07 6.72850057304e-03 2.12737157689e-10 2.07043375972e-10 3.32085268317e-10 7.81495508001e+00 6.63508041820e-02
4.30000000000e-01 1.75407945385e+01 6.68978721554e-07 6.96679778998e-03 2.12741664801e-10 2.07068079558e-10 3.32138335913e-10 8.15355290573e+00 7.02547692067e-02
4.40000000000e-01 1.68629688426e+01 7.94462097209e-07 7.19046154021e-03 2.12745894442e-10 2.07093216021e-10 3.32194000199e-10 8.50907529044e+00 7.44160079591e-02
4.50000000000e-01 1.62093545919e+01 9.37214094379e-07 7.39972722274e-03 2.12749866396e-10 2.07118797606e-10 3.32251929460e-10 8.88033595123e+00 7.88258139915e-02
4.60000000000e-01 1.55809941626e+01 1.09854259458e-06 7.59499388703e-03 2.12753598892e-10 2.07144837013e-10 3.32311831511e-10 9.26622529072e+00 8.34751324402e-02
4.70000000000e-01 1.49781493533e+01 1.27972877138e-06 7.77678740688e-03 2.12757108736e-10 2.07171347407e-10 3.32373452799e-10 9.66572482884e+00 8.83546810749e-02
4.80000000000e-01 1.44005315980e+01 1.48201391120e-06 7.94572701961e-03 2.12760411430e-10 2.07198342443e-10 3.32436576703e-10 1.00779045007e+01 9.34550125896e-02
4.90000000000e-01 1.38475065858e+01 1.70658633153e-06 8.10249586366e-03 2.12763521271e-10 2.07225836280e-10 3.32501021272e-10 1.05019087676e+01 9.87665490041e-02
5.00000000000e-01 1.33182556251e+01 1.95456908449e-06 8.24781577542e-03 2.12766451462e-10 2.07253843604e-10 3.32566636582e-10 1.09369371696e+01 1.04279610375e-01
5.10000000000e-01 1.28118897503e+01 2.22700910326e-06 8.38242632003e-03 2.12769214193e-10 2.07282379645e-10 3.32633301911e-10 1.13822238618e+01 1.09984450866e-01
5.20000000000e-01 1.23275212306e+01 2.52486832157e-06 8.50706782833e-03 2.12771820729e-10 2.07311460203e-10 3.32700922862e-10 1.18370192941e+01 1.15871307455e-01
5.30000000000e-01 1.18643013535e+01 2.84901711117e-06 8.62246808192e-03 2.12774281482e-10 2.07341101664e-10 3.32769428525e-10 1.23005758492e+01 1.21930460980e-01
5.40000000000e-01 1.14214343409e+01 3.20023018114e-06 8.72933221746e-03 2.12776606086e-10 2.07371321028e-10 3.32838768782e-10 1.27721381514e+01 1.28152305891e-01
5.50000000000e-01 1.09981763208e+01 3.57918489637e-06 8.82833539575e-03 2.12778803454e-10 2.07402135928e-10 3.32908911775e-10 1.32509379493e+01 1.34527423624e-01
5.60000000000e-01 1.05938264290e+01 3.98646182126e-06 8.92011778800e-03 2.12780881843e-10 2.07433564660e-10 3.32979841590e-10 1.37361929784e+01 1.41046654435e-01
5.70000000000e-01 1.02077150775e+01 4.42254718819e-06 9.00528145977e-03 2.12782848901e-10 2.07465626200e-10 3.33051556162e-10 1.42271089519e+01 1.47701163293e-01
5.80000000000e-01 9.83919258620e+00 4.88783693003e-06 9.08438877404e-03 2.12784711718e-10 2.07498340237e-10 3.33124065408e-10 1.47228837640e+01 1.54482496611e-01
5.90000000000e-01 9.48761991175e+00 5.38264189575e-06 9.15796198139e-03 2.12786476872e-10 2.07531727194e-10 3.33197389576e-10 1.52227130431e+01 1.61382627859e-01
6.00000000000e-01 9.15236216260e+00 5.90719388010e-06 9.22648371383e-03 2.12788150469e-10 2.07565808256e-10 3.33271557805e-10 1.57257963196e+01 1.68393991264e-01
6.10000000000e-01 8.83278491371e+00 6.46165213366e-06 9.29039814474e-03 2.12789738179e-10 2.07600605395e-10 3.33346606881e-10 1.62313432259e+01 1.75509503730e-01
6.20000000000e-01 8.52825295231e+00 7.04611006703e-06 9.35011262034e-03 2.12791245270e-10 2.07636141396e-10 3.33422580168e-10 1.67385793077e+01 1.82722575825e-01
6.30000000000e-01 8.23813091648e+00 7.66060191721e-06 9.40599960570e-03 2.12792676643e-10 2.07672439881e-10 3.33499526700e-10 1.72467511638e+01 1.90027113096e-01
6.40000000000e-01 7.96178525643e+00 8.30510919813e-06 9.45839882151e-03 2.12794036856e-10 2.07709525335e-10 3.33577500416e-10 1.77551307572e+01 1.97417509209e-01
6.50000000000e-01 7.69858699846e+00 8.97956680686e-06 9.50761947529e-03 2.12795330152e-10 2.07747423131e-10 3.33656559522e-10 1.82630188316e+01 2.04888632499e-01
6.60000000000e-01 7.44791487989e+00 9.68386870094e-06 9.55394251429e-03 2.12796560485e-10 2.07786159543e-10 3.33736765962e-10 1.87697474391e+01 2.12435807436e-01
6.70000000000e-01 7.20915852495e+00 1.04178730983e-05 9.59762284583e-03 2.12797731539e-10 2.07825761774e-10 3.33818184988e-10 1.92746816316e+01 2.20054792407e-01
6.80000000000e-01 6.98172142774e+00 1.11814071799e-05 9.63889148654e-03 2.12798846750e-10 2.07866257967e-10 3.33900884813e-10 1.97772203994e+01 2.27741755016e-01
6.90000000000e-01 6.76502359216e+00 1.19742712965e-05 9.67795761383e-03 2.12799909327e-10 2.07907677219e-10 3.33984936337e-10 2.02767969547e+01 2.35493245954e-01
7.00000000000e-01 6.55850374576e+00 1.27962426989e-05 9.71501050244e-03 2.12800922263e-10 2.07950049584e-10 3.34070412934e-10 2.07728784636e+01 2.43306172271e-01
7.10000000000e-01 6.36162109554e+00 1.36470788170e-05 9.75022133628e-03 2.12801888355e-10 2.07993406083e-10 3.34157390300e-10 2.12649653280e+01 2.51177770710e-01
7.20000000000e-01 6.17385662964e+00 1.45265201251e-05 9.78374489122e-03 2.12802810221e-10 2.08037778690e-10 3.34245946339e-10 2.17525901110e+01 2.59105581629e-01
7.30000000000e-01 5.99471399313e+00 1.54342926298e-05 9.81572108862e-03 2.12803690305e-10 2.08083200326e-10 3.34336161093e-10 2.22353161908e+01 2.67087423868e-01
7.40000000000e-01 5.82371998027e+00 1.63701100205e-05 9.84627642239e-03 2.12804530898e-10 2.08129704830e-10 3.34428116708e-10 2.27127362167e+01 2.75121370835e-01
7.50000000000e-01 5.66042469296e+00 1.73336755194e-05 9.87552526423e-03 2.12805334145e-10 2.08177326927e-10 3.34521897425e-10 2.31844704300e+01 2.83205727968e-01
7.60000000000e-01 5.50440141703e+00 1.83246834696e-05 9.90357105334e-03 2.12806102054e-10 2.08226102179e-10 3.34617589603e-10 2.36501649007e+01 2.91339011681e-01
7.70000000000e-01 5.35524626676e+00 1.93428206927e-05 9.93050737749e-03 2.12806836510e-10 2.08276066919e-10 3.34715281757e-10 2.41094897239e+01 2.99519929817e-01
7.80000000000e-01 5.21257764446e+00 2.03877676503e-05 9.95641895294e-03 2.12807539280e-10 2.08327258167e-10 3.34815064620e-10 2.45621372081e+01 3.07747363613e-01
7.90000000000e-01 5.07603555714e+00 2.14591994334e-05 9.98138251078e-03 2.12808212022e-10 2.08379713522e-10 3.34917031223e-10 2.50078200814e+01 3.16020351138e-01
8.00000000000e-01 4.94528082718e+00 2.25567866088e-05 1.00054675970e-02 2.12808856294e-10 2.08433471033e-10 3.35021276984e-10 2.54462697364e+01 3.24338072149e-01
8.10000000000e-01 4.81999422850e+00 2.36801959416e-05 1.00287372939e-02 2.12809473561e-10 2.08488569031e-10 3.35127899818e-10 2.58772345262e+01 3.32699834280e-01
8.20000000000e-01 4.69987557469e+00 2.48290910140e-05 1.00512488695e-02 2.12810065197e-10 2.08545045938e-10 3.35237000249e-10 2.63004781227e+01 3.41105060503e-01
8.30000000000e-01 4.58464278095e+00 2.60031327580e-05 1.00730543614e-02 2.12810632498e-10 2.08602940030e-10 3.35348681547e-10 2.67157779433e+01 3.49553277750e-01
8.40000000000e-01 4.47403091741e+00 2.72019799150e-05 1.00942011017e-02 2.12811176680e-10 2.08662289151e-10 3.35463049861e-10 2.71229236480e+01 3.58044106631e-01
8.50000000000e-01 4.36779126801e+00 2.84252894358e-05 1.01147321882e-02 2.12811698892e-10 2.08723130392e-10 3.35580214369e-10 2.75217157099e+01 3.66577252144e-01
8.60000000000e-01 4.26569040554e+00 2.96727168308e-05 1.01346869072e-02 2.12812200214e-10 2.08785499695e-10 3.35700287437e-10 2.79119640574e+01 3.75152495306e-01
8.70000000000e-01 4.16750929144e+00 3.09439164800e-05 1.01541011127e-02 2.12812681664e-10 2.08849431405e-10 3.35823384786e-10 2.82934867862e+01 3.83769685614e-01
8.80000000000e-01 4.07304240621e+00 3.22385419091e-05 1.01730075666e-02 2.12813144202e-10 2.08914957749e-10 3.35949625665e-10 2.86661089380e+01 3.92428734269e-01
8.90000000000e-01 3.98209691473e+00 3.35562460400e-05 1.01914362436e-02 2.12813588735e-10 2.08982108241e-10 3.36079133036e-10 2.90296613429e+01 4.01129608087e-01
9.00000000000e-01 3.89449186941e+00 3.48966814178e-05 1.02094146047e-02 2.12814016118e-10 2.09050908994e-10 3.36212033764e-10 2.93839795205e+01 4.09872324042e-01
9.10000000000e-01 3.81005745266e+00 3.62595004224e-05 1.02269678420e-02 2.12814427158e-10 2.09121381956e-10 3.36348458823e-10 2.97289026354e+01 4.18656944358e-01
9.20000000000e-01 3.72863425951e+00 3.76443554644e-05 1.02441190981e-02 2.12814822620e-10 2.09193544038e-10 3.36488543500e-10 3.00642725017e+01 4.27483572126e-01
9.30000000000e-01 3.65007262023e+00 3.90508991706e-05 1.02608896636e-02 2.12815203224e-10 2.09267406159e-10 3.36632427617e-10 3.03899326334e+01 4.36352347367e-01
9.40000000000e-01 3.57423196263e+00 4.04787845605e-05 1.02772991534e-02 2.12815569653e-10 2.09342972175e-10 3.36780255757e-10 3.07057273320e+01 4.45263443514e-01
9.50000000000e-01 3.50098021268e+00 4.19276652152e-05 1.02933656648e-02 2.12815922553e-10 2.09420237724e-10 3.36932177505e-10 3.10115008107e+01 4.54217064261e-01
9.60000000000e-01 3.43019323258e+00 4.33971954405e-05 1.03091059197e-02 2.12816262533e-10 2.09499188978e-10 3.37088347695e-10 3.13070963460e+01 4.63213440751e-01
9.70000000000e-01 3.36175429447e+00 4.48870304248e-05 1.03245353926e-02 2.12816590174e-10 2.09579801308e-10 3.37248926668e-10 3.15923554548e+01 4.72252829050e-01
9.80000000000e-01 3.29555358832e+00 4.63968263930e-05 1.03396684243e-02 2.12816906024e-10 2.09662037895e-10 3.37414080542e-10 3.18671170894e+01 4.81335507904e-01
9.90000000000e-01 3.23148776216e+00 4.79262407560e-05 1.03545183253e-02 2.12817210602e-10 2.09745848301e-10 3.37583981495e-10 3.21312168474e+01 4.90461776727e-01
1.00000000000e+00 3.16945949309e+00 4.94749322566e-05 1.03690974681e-02 2.12817504400e-10 2.09831167035e-10 3.37758808061e-10 3.23844861905e+01 4.99631953805e-01
1.01000000000e+00 3.10937708704e+00 5.10425611122e-05 1.03834173702e-02 2.12817787887e-10 2.09917912163e-10 3.37938745435e-10 3.26267516673e+01 5.08846374699e-01
1.02000000000e+00 3.05115410580e+00 5.26287891531e-05 1.03974887690e-02 2.12818061506e-10 2.10005984009e-10 3.38123985795e-10 3.28578341351e+01 5.18105390810e-01
1.03000000000e+00 2.99470901944e+00 5.42332799573e-05 1.04113216892e-02 2.12818325678e-10 2.10095264010e-10 3.38314728638e-10 3.30775479762e+01 5.27409368108e-01
1.04000000000e+00 2.93996488263e+00 5.58556989812e-05 1.04249255032e-02 2.12818580803e-10 2.10185613812e-10 3.38511181133e-10 3.32857003028e+01 5.36758685999e-01
1.05000000000e+00 2.88684903314e+00 5.74957136855e-05 1.04383089860e-02 2.12818827261e-10 2.10276874662e-10 3.38713558485e-10 3.34820901461e+01 5.46153736306e-01
1.06000000000e+00 2.83529281112e+00 5.91529936563e-05 1.04514803645e-02 2.12819065414e-10 2.10368867204e-10 3.38922084325e-10 3.36665076239e+01 5.55594922378e-01
1.07000000000e+00 2.78523129771e+00 6.08272107208e-05 1.04644473621e-02 2.12819295605e-10 2.10461391750e-10 3.39136991107e-10 3.38387330807e+01 5.65082658279e-01
1.08000000000e+00 2.73660307160e+00 6.25180390574e-05 1.04772172389e-02 2.12819518161e-10 2.10554229110e-10 3.39358520534e-10 3.39985361967e+01 5.74617368084e-01
1.09000000000e+00 2.68934998225e+00 6.42251552989e-05 1.04897968279e-02 2.12819733394e-10 2.10647142034e-10 3.39586924000e-10 3.41456750571e+01 5.84199485242e-01
1.10000000000e+00 2.64341693864e+00 6.59482386290e-05 1.05021925683e-02 2.12819941598e-10 2.10739877336e-10 3.39822463050e-10 3.42798951776e+01 5.93829452014e-01
1.11000000000e+00 2.59875171229e+00 6.76869708710e-05 1.05144105352e-02 2.12820143056e-10 2.10832168675e-10 3.40065409870e-10 3.44009284796e+01 6.03507718982e-01
1.12000000000e+00 2.55530475368e+00 6.94410365685e-05 1.05264564665e-02 2.12820338037e-10 2.10923740017e-10 3.40316047797e-10 3.45084922074e+01 6.13234744604e-01
1.13000000000e+00 2.51302902079e+00 7.12101230571e-05 1.05383357879e-02 2.12820526797e-10 2.11014309676e-10 3.40574671847e-10 3.46022877813e+01 6.23010994830e-01
1.14000000000e+00 2.47187981911e+00 7.29939205256e-05 1.05500536345e-02 2.12820709580e-10 2.11103594859e-10 3.40841589288e-10 3.46819995791e+01 6.32836942757e-01
1.15000000000e+00 2.43181465207e+00 7.47921220680e-05 1.05616148718e-02 2.12820886619e-10 2.11191316557e-10 3.41117120219e-10 3.47472936387e+01 6.42713068335e-01
1.16000000000e+00 2.39279308103e+00 7.66044237230e-05 1.05730241137e-02 2.12821058135e-10 2.11277204591e-10 3.41401598194e-10 3.47978162729e+01 6.52639858097e-01
1.17000000000e+00 2.35477659419e+00 7.84305245015e-05 1.05842857394e-02 2.12821224341e-10 2.11361002639e-10 3.41695370873e-10 3.48331925896e+01 6.62617804938e-01
1.18000000000e+00 2.31772848353e+00 8.02701264005e-05 1.05954039087e-02 2.12821385439e-10 2.11442472985e-10 3.41998800702e-10 3.48530249085e+01 6.72647407914e-01
1.19000000000e+00 2.28161372922e+00 8.21229344024e-05 1.06063825761e-02 2.12821541622e-10 2.11521400816e-10 3.42312265634e-10 3.48568910656e+01 6.82729172072e-01
1.20000000000e+00 2.24639889059e+00 8.39886564585e-05 1.06172255034e-02 2.12821693075e-10 2.11597597860e-10 3.42636159882e-10 3.48443425985e+01 6.92863608302e-01
